sys:time	sys:real_time	Temp	Field
19.211427927017212	1748902078.641099	0.0	0.0
20.319276094436646	1748902079.7439492	0.0	0.0
20.626490831375122	1748902080.055768	0.0	0.0
20.92664885520935	1748902080.3563159	0.0	0.0
21.33721899986267	1748902080.761886	0.0	0.0
21.740479946136475	1748902081.165163	0.0	0.0
22.0463707447052	1748902081.474575	0.0	0.0
22.346914768218994	1748902081.7715871	0.0	0.0
22.7477970123291	1748902082.172467	0.0	0.0
23.052640914916992	1748902082.479778	0.0	0.0
23.35784387588501	1748902082.786363	0.0	0.0
23.668853044509888	1748902083.094513	0.0	0.0
23.96991276741028	1748902083.3945851	0.0	0.0
24.264988899230957	1748902083.694657	0.0	0.0
24.66150712966919	1748902084.09115	0.0	0.0
24.958616018295288	1748902084.3833869	0.0	0.0
25.255738973617554	1748902084.6819048	0.0	0.0
25.558176040649414	1748902084.9828532	0.0	0.0
25.860121726989746	1748902085.286507	0.0	0.0
26.169708967208862	1748902085.597373	0.0	0.0
26.57564687728882	1748902086.003051	0.0	0.0
26.8713538646698	1748902086.3010151	0.0	0.0
27.2817599773407	1748902086.711421	0.0	0.0
27.700400829315186	1748902087.1261282	0.0	0.0
28.01096796989441	1748902087.4406312	0.0	0.0
28.420633792877197	1748902087.849268	0.0	0.0
28.733497858047485	1748902088.163167	0.0	0.0
29.152204990386963	1748902088.5768902	0.0	0.0
29.561366081237793	1748902088.9863732	0.0	0.0
29.8538658618927	1748902089.278545	0.0	0.0
30.254240036010742	1748902089.678915	0.0	0.0
30.546390056610107	1748902089.973932	0.0	0.0
30.96657681465149	1748902090.3912451	0.0	0.0
31.363066911697388	1748902090.787733	0.0	0.0
31.67048978805542	1748902091.100151	0.0	0.0
31.975863933563232	1748902091.4005382	0.0	0.0
33.431376934051514	1748902092.8560572	0.0	0.0
34.53224182128906	1748902093.9619021	0.0	0.0
34.8389949798584	1748902094.268665	0.0	0.0
35.25440692901611	1748902094.684078	0.0	0.0
35.56654095649719	1748902094.991728	0.0	0.0
35.9683940410614	1748902095.398062	0.0	0.0
36.27947402000427	1748902095.704153	0.0	0.0
36.57835602760315	1748902096.00303	0.0	0.0
36.86984300613403	1748902096.294517	0.0	0.0
37.17663598060608	1748902096.606297	0.0	0.0
37.59616994857788	1748902097.0208519	0.0	0.0
37.8887140750885	1748902097.313757	0.0	0.0
38.19479298591614	1748902097.6244538	0.0	0.0
38.50715708732605	1748902097.934355	0.0	0.0
38.80813384056091	1748902098.234881	0.0	0.0
39.105539083480835	1748902098.5346408	0.0	0.0
39.41532015800476	1748902098.8439648	0.0	0.0
39.7160530090332	1748902099.145716	0.0	0.0
40.12238907814026	1748902099.5470662	0.0	0.0
40.52549600601196	1748902099.950169	0.0	0.0
40.9220449924469	1748902100.351705	0.0	0.0
41.235896825790405	1748902100.660584	0.0	0.0
41.57773804664612	1748902101.007406	0.0	0.0
41.885098934173584	1748902101.3106089	0.0	0.0
42.29248309135437	1748902101.7180521	0.0	0.0
42.60489869117737	1748902102.029585	0.0	0.0
42.90485501289368	1748902102.334522	0.0	0.0
43.30758786201477	1748902102.7322612	0.0	0.0
43.605443716049194	1748902103.035105	0.0	0.0
44.02154898643494	1748902103.446228	0.0	0.0
44.3276948928833	1748902103.7525601	0.0	0.0
44.62020778656006	1748902104.0473118	0.0	0.0
44.928921937942505	1748902104.353599	0.0	0.0
45.22992491722107	1748902104.654606	0.0	0.0
45.53419589996338	1748902104.961011	0.0	0.0
45.828803062438965	1748902105.255627	0.0	0.0
46.22869896888733	1748902105.65394	0.0	0.0
46.52253174781799	1748902105.952201	0.0	0.0
46.82936096191406	1748902106.255532	0.0	0.0
47.129881858825684	1748902106.557416	0.0	0.0
47.429829835891724	1748902106.8559659	0.0	0.0
47.73766613006592	1748902107.164379	0.0	0.0
48.139075756073	1748902107.564565	0.0	0.0
48.53930974006653	1748902107.964003	0.0	0.0
48.83259606361389	1748902108.26226	0.0	0.0
49.13244700431824	1748902108.5621068	0.0	0.0
49.446069955825806	1748902108.872407	0.0	0.0
49.75326895713806	1748902109.182936	0.0	0.0
50.071341037750244	1748902109.501002	0.0	0.0
50.39080595970154	1748902109.8204732	0.0	0.0
50.80247402191162	1748902110.2321439	0.0	0.0
51.21778893470764	1748902110.6436	0.0	0.0
51.62371301651001	1748902111.0483909	0.0	0.0
51.918323040008545	1748902111.342999	0.0	0.0
52.31571292877197	1748902111.740396	0.0	0.0
52.61809802055359	1748902112.047771	0.0	0.0
52.91970896720886	1748902112.3479521	0.0	0.0
53.23153471946716	1748902112.659987	0.0	0.0
53.550514936447144	1748902112.9751942	0.0	0.0
53.9617657661438	1748902113.389	0.0	0.0
54.36582612991333	1748902113.795491	0.0	0.0
54.67698407173157	1748902114.106648	0.0	0.0
54.99637293815613	1748902114.422034	0.0	0.0
55.302223920822144	1748902114.730525	0.0	0.0
55.70119094848633	1748902115.130851	0.0	0.0
56.00210881233215	1748902115.426778	0.0	0.0
56.30376887321472	1748902115.731458	0.0	0.0
56.600533962249756	1748902116.030197	0.0	0.0
57.014800786972046	1748902116.444468	0.0	0.0
57.32574701309204	1748902116.753509	0.0	0.0
57.74015283584595	1748902117.168594	0.0	0.0
58.04098105430603	1748902117.470651	0.0	0.0
58.44874596595764	1748902117.8737228	0.0	0.0
58.74087595939636	1748902118.1705432	0.0	0.0
59.16141700744629	1748902118.586096	0.0	0.0
59.57685399055481	1748902119.00652	0.0	0.0
59.88154602050781	1748902119.309643	0.0	0.0
60.18253183364868	1748902119.607203	0.0	0.0
60.48297691345215	1748902119.912641	0.0	0.0
60.906704902648926	1748902120.33637	0.0	0.0
61.21666193008423	1748902120.641333	0.0	0.0
61.625345945358276	1748902121.055017	0.0	0.0
61.93689489364624	1748902121.366556	0.0	0.0
62.353431940078735	1748902121.77812	0.0	0.0
62.66466999053955	1748902122.089345	0.0	0.0
62.964864015579224	1748902122.389545	0.0	0.0
63.26268911361694	1748902122.6923578	0.0	0.0
63.57552695274353	1748902123.000206	0.0	0.0
63.99091672897339	1748902123.4185312	0.0	0.0
64.39468693733215	1748902123.824348	0.0	0.0
64.7073118686676	1748902124.136982	0.0	0.0
65.01186800003052	1748902124.439539	0.0	0.0
65.3128719329834	1748902124.740764	0.0	0.0
65.72919988632202	1748902125.1538901	0.0	0.0
66.14184498786926	1748902125.571507	0.0	0.0
66.45209288597107	1748902125.880898	0.0	0.0
66.75434494018555	1748902126.1821282	0.0	0.0
67.05336809158325	1748902126.48282	0.0	0.0
67.46838688850403	1748902126.898051	0.0	0.0
67.76914405822754	1748902127.197877	0.0	0.0
68.06979203224182	1748902127.494466	0.0	0.0
68.36096692085266	1748902127.785634	0.0	0.0
68.77260279655457	1748902128.1975229	0.0	0.0
69.06969594955444	1748902128.494366	0.0	0.0
69.46577310562134	1748902128.895433	0.0	0.0
69.77546286582947	1748902129.2040021	0.0	0.0
70.17563080787659	1748902129.6032908	0.0	0.0
70.49349999427795	1748902129.92316	0.0	0.0
70.91652297973633	1748902130.341289	0.0	0.0
71.21283984184265	1748902130.642505	0.0	0.0
71.62101984024048	1748902131.045696	0.0	0.0
72.02847599983215	1748902131.453148	0.0	0.0
72.33460187911987	1748902131.759278	0.0	0.0
72.625807762146	1748902132.0554721	0.0	0.0
72.93568992614746	1748902132.3653529	0.0	0.0
73.35041689872742	1748902132.775083	0.0	0.0
73.64139485359192	1748902133.067682	0.0	0.0
74.03595399856567	1748902133.460635	0.0	0.0
74.34553599357605	1748902133.7752068	0.0	0.0
74.65961289405823	1748902134.089279	0.0	0.0
75.07930707931519	1748902134.508967	0.0	0.0
75.48594307899475	1748902134.91069	0.0	0.0
75.89884185791016	1748902135.326401	0.0	0.0
76.30572390556335	1748902135.7304409	0.0	0.0
76.71399402618408	1748902136.1386628	0.0	0.0
77.00503706932068	1748902136.4308531	0.0	0.0
77.40058493614197	1748902136.8302531	0.0	0.0
77.79916000366211	1748902137.223833	0.0	0.0
78.0997359752655	1748902137.524405	0.0	0.0
78.40022087097168	1748902137.829885	0.0	0.0
78.70661306381226	1748902138.1326458	0.0	0.0
79.11643385887146	1748902138.5411022	0.0	0.0
79.42123293876648	1748902138.8470259	0.0	0.0
79.82997989654541	1748902139.2546592	0.0	0.0
80.14235806465149	1748902139.5720189	0.0	0.0
80.54972386360168	1748902139.979384	0.0	0.0
80.96595311164856	1748902140.394666	0.0	0.0
81.27476096153259	1748902140.699444	0.0	0.0
81.67786908149719	1748902141.102548	0.0	0.0
81.98086190223694	1748902141.410523	0.0	0.0
82.28511691093445	1748902141.709784	0.0	0.0
82.58299803733826	1748902142.012662	0.0	0.0
83.00029683113098	1748902142.425432	0.0	0.0
83.30984711647034	1748902142.739149	0.0	0.0
83.73276901245117	1748902143.158459	0.0	0.0
84.0450119972229	1748902143.474677	0.0	0.0
84.35566115379333	1748902143.7853281	0.0	0.0
84.76228880882263	1748902144.191961	0.0	0.0
85.17428302764893	1748902144.601098	0.0	0.0
85.5847659111023	1748902145.01207	0.0	0.0
85.99484705924988	1748902145.4197068	0.0	0.0
86.29458403587341	1748902145.720651	0.0	0.0
86.71137690544128	1748902146.1410382	0.0	0.0
87.01786279678345	1748902146.4475331	0.0	0.0
87.328684091568	1748902146.753367	0.0	0.0
87.63438010215759	1748902147.059424	0.0	0.0
87.92966294288635	1748902147.354462	0.0	0.0
88.32363700866699	1748902147.7484758	0.0	0.0
88.62832379341125	1748902148.052999	0.0	0.0
88.92899894714355	1748902148.358672	0.0	0.0
89.23253774642944	1748902148.65721	0.0	0.0
89.63265800476074	1748902149.05734	0.0	0.0
89.93193197250366	1748902149.356611	0.0	0.0
90.22988796234131	1748902149.659553	0.0	0.0
90.5373649597168	1748902149.9637802	0.0	0.0
90.93990993499756	1748902150.366133	0.0	0.0
91.33995389938354	1748902150.7696152	0.0	0.0
91.65097284317017	1748902151.075646	0.0	0.0
91.94457387924194	1748902151.3742442	0.0	0.0
92.34097003936768	1748902151.766392	0.0	0.0
92.64270901679993	1748902152.067994	0.0	0.0
93.05256795883179	1748902152.477254	0.0	0.0
93.34370684623718	1748902152.773371	0.0	0.0
93.65362191200256	1748902153.083284	0.0	0.0
94.06005597114563	1748902153.4873338	0.0	0.0
94.45523691177368	1748902153.8799202	0.0	0.0
94.84707188606262	1748902154.274652	0.0	0.0
95.25949001312256	1748902154.689162	0.0	0.0
95.66745400428772	1748902155.0921369	0.0	0.0
95.95848870277405	1748902155.388156	0.0	0.0
96.26431679725647	1748902155.689513	0.0	0.0
96.66639494895935	1748902156.096079	0.0	0.0
96.96802997589111	1748902156.3976939	0.0	0.0
97.27681374549866	1748902156.7015018	0.0	0.0
97.58768105506897	1748902157.0123572	0.0	0.0
97.87869191169739	1748902157.3033652	0.0	0.0
98.16991782188416	1748902157.599582	0.0	0.0
98.58369302749634	1748902158.011483	0.0	0.0
98.87881708145142	1748902158.3035	0.0	0.0
99.16995477676392	1748902158.599618	0.0	0.0
99.47909498214722	1748902158.908756	0.0	0.0
99.88557600975037	1748902159.313548	0.0	0.0
100.19659399986267	1748902159.621273	0.0	0.0
100.50168800354004	1748902159.930451	0.0	0.0
100.92052984237671	1748902160.350199	0.0	0.0
101.23644280433655	1748902160.6661088	0.0	0.0
101.6466691493988	1748902161.07551	0.0	0.0
102.0622410774231	1748902161.4919019	0.0	0.0
102.47137904167175	1748902161.89614	0.0	0.0
102.88204002380371	1748902162.310551	0.0	0.0
103.18196296691895	1748902162.611627	0.0	0.0
103.6031289100647	1748902163.027794	0.0	0.0
103.89441680908203	1748902163.324078	0.0	0.0
104.20455884933472	1748902163.6342232	0.0	0.0
104.61988401412964	1748902164.044564	0.0	0.0
104.9116358757019	1748902164.3373592	0.0	0.0
105.22013187408447	1748902164.644803	0.0	0.0
105.52523493766785	1748902164.954896	0.0	0.0
105.8348958492279	1748902165.2645602	0.0	0.0
106.25424194335938	1748902165.6791081	0.0	0.0
106.5657148361206	1748902165.990394	0.0	0.0
106.86656093597412	1748902166.291235	0.0	0.0
107.26334476470947	1748902166.693022	0.0	0.0
107.67250800132751	1748902167.1009269	0.0	0.0
108.0803689956665	1748902167.5050418	0.0	0.0
108.47647213935852	1748902167.90169	0.0	0.0
108.76871490478516	1748902168.198389	0.0	0.0
109.1704740524292	1748902168.6001348	0.0	0.0
109.57044887542725	1748902168.9982321	0.0	0.0
109.9686107635498	1748902169.3932831	0.0	0.0
110.26893281936646	1748902169.6985972	0.0	0.0
110.68563675880432	1748902170.1153028	0.0	0.0
110.98971891403198	1748902170.41938	0.0	0.0
111.295982837677	1748902170.7233841	0.0	0.0
111.59108996391296	1748902171.015771	0.0	0.0
111.89199995994568	1748902171.316671	0.0	0.0
112.1836109161377	1748902171.6132648	0.0	0.0
112.50113987922668	1748902171.928906	0.0	0.0
112.9108579158783	1748902172.3405309	0.0	0.0
113.21639776229858	1748902172.644989	0.0	0.0
113.63175892829895	1748902173.056436	0.0	0.0
113.9303297996521	1748902173.3599958	0.0	0.0
114.2376058101654	1748902173.6660092	0.0	0.0
114.65308380126953	1748902174.078656	0.0	0.0
114.95318388938904	1748902174.382849	0.0	0.0
115.25933694839478	1748902174.687191	0.0	0.0
115.66300010681152	1748902175.0876858	0.0	0.0
116.06093788146973	1748902175.4888902	0.0	0.0
116.37124514579773	1748902175.7976031	0.0	0.0
116.6805100440979	1748902176.10863	0.0	0.0
117.07729482650757	1748902176.506631	0.0	0.0
117.48904705047607	1748902176.913728	0.0	0.0
117.78535294532776	1748902177.211044	0.0	0.0
118.09252309799194	1748902177.520316	0.0	0.0
118.50365591049194	1748902177.933316	0.0	0.0
118.91987776756287	1748902178.344558	0.0	0.0
119.31719708442688	1748902178.741876	0.0	0.0
119.7256269454956	1748902179.151407	0.0	0.0
120.12720799446106	1748902179.55189	0.0	0.0
120.43441486358643	1748902179.859349	0.0	0.0
120.74022698402405	1748902180.169898	0.0	0.0
121.04071283340454	1748902180.470376	0.0	0.0
121.35920786857605	1748902180.783883	0.0	0.0
121.65054106712341	1748902181.080204	0.0	0.0
121.96056985855103	1748902181.390234	0.0	0.0
122.28047275543213	1748902181.710141	0.0	0.0
122.68525099754333	1748902182.114205	0.0	0.0
122.98686003684998	1748902182.414475	0.0	0.0
123.39533495903015	1748902182.82221	0.0	0.0
123.69558787345886	1748902183.120268	0.0	0.0
123.98658490180969	1748902183.414794	0.0	0.0
124.30225586891174	1748902183.7319171	0.0	0.0
124.71175193786621	1748902184.137097	0.0	0.0
125.01001501083374	1748902184.437255	0.0	0.0
125.31034708023071	1748902184.737209	0.0	0.0
125.6089301109314	1748902185.036992	0.0	0.0
126.00965595245361	1748902185.4373481	0.0	0.0
126.30618095397949	1748902185.735842	0.0	0.0
126.72980999946594	1748902186.159061	0.0	0.0
127.04502987861633	1748902186.474696	0.0	0.0
127.3527398109436	1748902186.7800431	0.0	0.0
127.76774716377258	1748902187.197417	0.0	0.0
128.07514691352844	1748902187.500677	0.0	0.0
128.3682050704956	1748902187.797875	0.0	0.0
128.6683168411255	1748902188.097982	0.0	0.0
128.96790289878845	1748902188.3975759	0.0	0.0
129.27407789230347	1748902188.700438	0.0	0.0
129.6853268146515	1748902189.1128588	0.0	0.0
130.09000611305237	1748902189.514687	0.0	0.0
130.38788104057312	1748902189.812553	0.0	0.0
130.67914390563965	1748902190.10389	0.0	0.0
131.09339499473572	1748902190.52306	0.0	0.0
131.38956594467163	1748902190.814573	0.0	0.0
131.79427981376648	1748902191.223918	0.0	0.0
132.20055770874023	1748902191.625512	0.0	0.0
132.6172149181366	1748902192.0459	0.0	0.0
132.93019604682922	1748902192.3598568	0.0	0.0
133.24642086029053	1748902192.676096	0.0	0.0
133.55095505714417	1748902192.9806201	0.0	0.0
133.97313594818115	1748902193.3978088	0.0	0.0
134.37155199050903	1748902193.7962198	0.0	0.0
134.77389287948608	1748902194.203563	0.0	0.0
135.07819890975952	1748902194.506061	0.0	0.0
135.39330887794495	1748902194.820062	0.0	0.0
135.69490098953247	1748902195.119583	0.0	0.0
135.98886489868164	1748902195.4185338	0.0	0.0
136.30152988433838	1748902195.727131	0.0	0.0
136.60963678359985	1748902196.039297	0.0	0.0
136.91541600227356	1748902196.345079	0.0	0.0
137.22833895683289	1748902196.653016	0.0	0.0
137.63221883773804	1748902197.060124	0.0	0.0
137.941321849823	1748902197.370983	0.0	0.0
138.361811876297	1748902197.789129	0.0	0.0
138.66781187057495	1748902198.0924978	0.0	0.0
138.96938705444336	1748902198.399053	0.0	0.0
139.30235385894775	1748902198.72953	0.0	0.0
139.6066918373108	1748902199.0315058	0.0	0.0
139.9178569316864	1748902199.342924	0.0	0.0
140.32555079460144	1748902199.753504	0.0	0.0
140.6205129623413	1748902200.0451999	0.0	0.0
141.01886701583862	1748902200.445784	0.0	0.0
141.3241090774536	1748902200.7532291	0.0	0.0
141.6263837814331	1748902201.052426	0.0	0.0
141.92921805381775	1748902201.358884	0.0	0.0
142.33785486221313	1748902201.7645912	0.0	0.0
142.63862991333008	1748902202.063482	0.0	0.0
142.94236278533936	1748902202.367042	0.0	0.0
143.34733295440674	1748902202.776861	0.0	0.0
143.6489520072937	1748902203.0750499	0.0	0.0
143.95404386520386	1748902203.383716	0.0	0.0
144.26266074180603	1748902203.6883998	0.0	0.0
144.56368494033813	1748902203.988653	0.0	0.0
144.86934876441956	1748902204.294793	0.0	0.0
145.17921590805054	1748902204.608437	0.0	0.0
145.48099398612976	1748902204.9056919	0.0	0.0
145.8873107433319	1748902205.311984	0.0	0.0
146.17883586883545	1748902205.6084979	0.0	0.0
146.49406385421753	1748902205.923732	0.0	0.0
146.90956282615662	1748902206.337174	0.0	0.0
147.20680713653564	1748902206.631814	0.0	0.0
147.51829886436462	1748902206.947959	0.0	0.0
147.82538604736328	1748902207.255056	0.0	0.0
148.1313989162445	1748902207.5583072	0.0	0.0
148.42571592330933	1748902207.855381	0.0	0.0
148.74040985107422	1748902208.165096	0.0	0.0
149.04164505004883	1748902208.4713118	0.0	0.0
149.45800304412842	1748902208.882682	0.0	0.0
149.86081314086914	1748902209.287328	0.0	0.0
150.16650915145874	1748902209.591187	0.0	0.0
150.56244087219238	1748902209.9921029	0.0	0.0
150.97761988639832	1748902210.4026308	0.0	0.0
151.28620195388794	1748902210.711103	0.0	0.0
151.58945107460022	1748902211.0148811	0.0	0.0
151.89609384536743	1748902211.322892	0.0	0.0
152.20278978347778	1748902211.632464	0.0	0.0
152.61964178085327	1748902212.044464	0.0	0.0
153.0334038734436	1748902212.460767	0.0	0.0
153.3408079147339	1748902212.769399	0.0	0.0
153.64734888076782	1748902213.073318	0.0	0.0
153.95137095451355	1748902213.376053	0.0	0.0
154.25843405723572	1748902213.684353	0.0	0.0
154.5600881576538	1748902213.989444	0.0	0.0
154.87261295318604	1748902214.2972941	0.0	0.0
155.2772560119629	1748902214.706933	0.0	0.0
155.59516596794128	1748902215.019841	0.0	0.0
155.89329195022583	1748902215.3229609	0.0	0.0
156.29474401474	1748902215.722452	0.0	0.0
156.69439005851746	1748902216.123285	0.0	0.0
157.00710201263428	1748902216.431781	0.0	0.0
157.30009078979492	1748902216.725494	0.0	0.0
157.6019389629364	1748902217.028131	0.0	0.0
157.90444588661194	1748902217.329128	0.0	0.0
158.21486282348633	1748902217.64347	0.0	0.0
158.6287739276886	1748902218.056418	0.0	0.0
159.0284938812256	1748902218.458164	0.0	0.0
159.33689904212952	1748902218.7621372	0.0	0.0
159.6372218132019	1748902219.061908	0.0	0.0
159.93697094917297	1748902219.363353	0.0	0.0
160.24296498298645	1748902219.670101	0.0	0.0
160.54833793640137	1748902219.9780018	0.0	0.0
160.8580470085144	1748902220.2877178	0.0	0.0
161.1680030822754	1748902220.594121	0.0	0.0
161.5792031288147	1748902221.004077	0.0	0.0
161.87349390983582	1748902221.29817	0.0	0.0
162.16470408439636	1748902221.592565	0.0	0.0
162.47867393493652	1748902221.903362	0.0	0.0
162.77210593223572	1748902222.201772	0.0	0.0
163.0805881023407	1748902222.510252	0.0	0.0
163.3855800628662	1748902222.812848	0.0	0.0
163.78829908370972	1748902223.214869	0.0	0.0
164.09703397750854	1748902223.5266612	0.0	0.0
164.50454878807068	1748902223.929675	0.0	0.0
164.9101939201355	1748902224.335101	0.0	0.0
165.21051788330078	1748902224.635187	0.0	0.0
165.5079517364502	1748902224.934803	0.0	0.0
165.8138461112976	1748902225.24068	0.0	0.0
166.21306705474854	1748902225.638548	0.0	0.0
166.5175769329071	1748902225.944044	0.0	0.0
166.82342982292175	1748902226.24872	0.0	0.0
167.12522387504578	1748902226.5499039	0.0	0.0
167.52655577659607	1748902226.9528792	0.0	0.0
167.93924188613892	1748902227.3686311	0.0	0.0
168.2436580657959	1748902227.668743	0.0	0.0
168.5445168018341	1748902227.969198	0.0	0.0
168.94073915481567	1748902228.3654258	0.0	0.0
169.23967599868774	1748902228.66935	0.0	0.0
169.64411091804504	1748902229.069118	0.0	0.0
169.93598175048828	1748902229.3616729	0.0	0.0
170.24398684501648	1748902229.6704571	0.0	0.0
170.5531940460205	1748902229.978813	0.0	0.0
170.87196278572083	1748902230.296642	0.0	0.0
