sys:time	sys:real_time	Temp	Field
413.9032509326935	1748903773.300344	10.0	2.0
415.0053770542145	1748903774.40351	10.0	1.0
415.3095591068268	1748903774.705657	10.0	1.0
415.61688113212585	1748903775.017966	10.0	1.0
415.92569398880005	1748903775.3220139	10.0	1.0
416.33029413223267	1748903775.730656	10.0	1.0
416.63730001449585	1748903776.033393	10.0	1.0
416.937881231308	1748903776.338965	10.0	1.0
417.2503559589386	1748903776.646445	10.0	1.0
417.6529359817505	1748903777.049033	10.0	1.0
417.95206022262573	1748903777.352226	10.0	1.0
418.358439207077	1748903777.754584	10.0	1.0
418.6516501903534	1748903778.047751	10.0	1.0
418.9570550918579	1748903778.353685	10.0	1.0
419.2548532485962	1748903778.650949	10.0	1.0
419.55249404907227	1748903778.953579	10.0	1.0
419.87039709091187	1748903779.2665012	10.0	1.0
420.17213010787964	1748903779.573218	10.0	1.0
420.48804926872253	1748903779.8844218	10.0	1.0
420.7888140678406	1748903780.1859798	10.0	1.0
421.20532608032227	1748903780.605275	10.0	1.0
421.5145139694214	1748903780.913734	10.0	1.0
421.82658100128174	1748903781.226357	10.0	1.0
422.23968410491943	1748903781.6403048	10.0	1.0
422.54152393341064	1748903781.942606	10.0	1.0
422.95504212379456	1748903782.351131	10.0	1.0
423.36217403411865	1748903782.763259	10.0	1.0
423.68207001686096	1748903783.083151	10.0	1.0
423.98344707489014	1748903783.379545	10.0	1.0
424.39213490486145	1748903783.793227	10.0	1.0
424.70147609710693	1748903784.097579	10.0	1.0
424.995450258255	1748903784.3965309	10.0	1.0
425.3115441799164	1748903784.708717	10.0	1.0
425.6168601512909	1748903785.012953	10.0	1.0
425.9083561897278	1748903785.304446	10.0	1.0
426.212021112442	1748903785.608983	10.0	1.0
426.5109701156616	1748903785.910784	10.0	1.0
426.82611989974976	1748903786.222216	10.0	1.0
427.23063135147095	1748903786.629458	10.0	1.0
427.53644323349	1748903786.93538	10.0	1.0
427.8522560596466	1748903787.251426	10.0	1.0
428.26757192611694	1748903787.66749	10.0	1.0
428.67619729042053	1748903788.075632	10.0	1.0
428.9871642589569	1748903788.388244	10.0	1.0
429.2942180633545	1748903788.692479	10.0	1.0
429.5935549736023	1748903788.992809	10.0	1.0
429.90343499183655	1748903789.304516	10.0	1.0
430.2191412448883	1748903789.620221	10.0	1.0
430.52243304252625	1748903789.9235132	10.0	1.0
430.8404281139374	1748903790.236516	10.0	1.0
431.2420542240143	1748903790.643137	10.0	1.0
431.55465602874756	1748903790.9546611	10.0	1.0
431.85183215141296	1748903791.252914	10.0	1.0
432.2654061317444	1748903791.661495	10.0	1.0
432.67552518844604	1748903792.076302	10.0	1.0
433.08734011650085	1748903792.48842	10.0	1.0
433.40245509147644	1748903792.7985542	10.0	1.0
433.7024300098419	1748903793.098515	10.0	1.0
434.0015060901642	1748903793.3976052	10.0	1.0
434.4129111766815	1748903793.8090081	10.0	1.0
434.7177002429962	1748903794.117611	10.0	1.0
435.0145070552826	1748903794.415595	10.0	1.0
435.33357310295105	1748903794.734654	10.0	1.0
435.7432382106781	1748903795.144321	10.0	1.0
436.0491991043091	1748903795.450287	10.0	1.0
436.3536922931671	1748903795.751219	10.0	1.0
436.76359033584595	1748903796.1596859	10.0	1.0
437.170606136322	1748903796.5667021	10.0	1.0
437.4706060886383	1748903796.8715992	10.0	1.0
437.7925341129303	1748903797.193619	10.0	1.0
438.20500111579895	1748903797.601867	10.0	1.0
438.61306500434875	1748903798.014147	10.0	1.0
439.02674317359924	1748903798.42283	10.0	1.0
439.43585109710693	1748903798.831939	10.0	1.0
439.8380002975464	1748903799.234129	10.0	1.0
440.1534221172333	1748903799.5545018	10.0	1.0
440.46652817726135	1748903799.8663218	10.0	1.0
440.77838587760925	1748903800.174477	10.0	1.0
441.07916593551636	1748903800.478892	10.0	1.0
441.494264125824	1748903800.89036	10.0	1.0
441.79778003692627	1748903801.19388	10.0	1.0
442.09975123405457	1748903801.495838	10.0	1.0
442.4001500606537	1748903801.8012302	10.0	1.0
442.82618403434753	1748903802.226413	10.0	1.0
443.14055013656616	1748903802.541631	10.0	1.0
443.54147815704346	1748903802.940554	10.0	1.0
443.95723605155945	1748903803.35332	10.0	1.0
444.26181507110596	1748903803.6628952	10.0	1.0
444.67711997032166	1748903804.078201	10.0	1.0
445.0933849811554	1748903804.494465	10.0	1.0
445.4054841995239	1748903804.806567	10.0	1.0
445.72287702560425	1748903805.123956	10.0	1.0
446.14215087890625	1748903805.5382452	10.0	1.0
446.4453420639038	1748903805.846433	10.0	1.0
446.7463262081146	1748903806.1474051	10.0	1.0
447.05646800994873	1748903806.457549	10.0	1.0
447.36969113349915	1748903806.769662	10.0	1.0
447.67523407936096	1748903807.076315	10.0	1.0
447.9902710914612	1748903807.391135	10.0	1.0
448.3945779800415	1748903807.7908878	10.0	1.0
448.6970419883728	1748903808.098125	10.0	1.0
449.0161681175232	1748903808.417249	10.0	1.0
449.33175015449524	1748903808.731444	10.0	1.0
449.6297161579132	1748903809.030797	10.0	1.0
449.9322392940521	1748903809.3320131	10.0	1.0
450.2436170578003	1748903809.644706	10.0	1.0
450.54788613319397	1748903809.945995	10.0	1.0
450.95716309547424	1748903810.353308	10.0	1.0
451.258642911911	1748903810.65486	10.0	1.0
451.55515813827515	1748903810.95366	10.0	1.0
451.86472511291504	1748903811.263752	10.0	1.0
452.27835607528687	1748903811.6748438	10.0	1.0
452.581335067749	1748903811.9824178	10.0	1.0
452.88212513923645	1748903812.278214	10.0	1.0
453.1899242401123	1748903812.586014	10.0	1.0
453.49732208251953	1748903812.895385	10.0	1.0
453.8019771575928	1748903813.203061	10.0	1.0
454.11599612236023	1748903813.515981	10.0	1.0
454.42948818206787	1748903813.8305678	10.0	1.0
454.74835419654846	1748903814.144446	10.0	1.0
455.0519800186157	1748903814.4530618	10.0	1.0
455.45789313316345	1748903814.857334	10.0	1.0
455.7682321071625	1748903815.165556	10.0	1.0
456.18196988105774	1748903815.578086	10.0	1.0
456.58384895324707	1748903815.984852	10.0	1.0
457.0027711391449	1748903816.3992052	10.0	1.0
457.30719017982483	1748903816.70827	10.0	1.0
457.6243591308594	1748903817.020459	10.0	1.0
457.92999029159546	1748903817.331071	10.0	1.0
458.23571515083313	1748903817.636798	10.0	1.0
458.5523850917816	1748903817.953465	10.0	1.0
458.9616210460663	1748903818.3614469	10.0	1.0
459.36886405944824	1748903818.7688808	10.0	1.0
459.78117299079895	1748903819.182258	10.0	1.0
460.19314527511597	1748903819.591744	10.0	1.0
460.59818410873413	1748903819.99816	10.0	1.0
460.89793729782104	1748903820.294027	10.0	1.0
461.19913029670715	1748903820.5965781	10.0	1.0
461.50247502326965	1748903820.903029	10.0	1.0
461.80520606040955	1748903821.203269	10.0	1.0
462.2208070755005	1748903821.616964	10.0	1.0
462.6243951320648	1748903822.024113	10.0	1.0
463.0346350669861	1748903822.4307342	10.0	1.0
463.3392300605774	1748903822.735322	10.0	1.0
463.6402771472931	1748903823.041358	10.0	1.0
464.04946517944336	1748903823.4456441	10.0	1.0
464.34698390960693	1748903823.7457988	10.0	1.0
464.6539041996002	1748903824.049995	10.0	1.0
464.96150302886963	1748903824.362584	10.0	1.0
465.2691180706024	1748903824.667535	10.0	1.0
465.6761441230774	1748903825.077227	10.0	1.0
465.9928300380707	1748903825.391484	10.0	1.0
466.30267214775085	1748903825.698771	10.0	1.0
466.70502614974976	1748903826.106106	10.0	1.0
467.1186239719391	1748903826.514719	10.0	1.0
467.52347111701965	1748903826.923562	10.0	1.0
467.92539405822754	1748903827.321494	10.0	1.0
468.3293602466583	1748903827.729551	10.0	1.0
468.7347903251648	1748903828.1358771	10.0	1.0
469.05528497695923	1748903828.451379	10.0	1.0
469.4542729854584	1748903828.8504791	10.0	1.0
469.76702213287354	1748903829.168109	10.0	1.0
470.1870799064636	1748903829.583182	10.0	1.0
470.48182106018066	1748903829.8779142	10.0	1.0
470.78383207321167	1748903830.184321	10.0	1.0
471.18876600265503	1748903830.5850492	10.0	1.0
471.4960472583771	1748903830.892695	10.0	1.0
471.89689922332764	1748903831.292994	10.0	1.0
472.20826601982117	1748903831.609348	10.0	1.0
472.5105631351471	1748903831.906661	10.0	1.0
472.90885829925537	1748903832.3049548	10.0	1.0
473.2095501422882	1748903832.610637	10.0	1.0
473.5143880844116	1748903832.914285	10.0	1.0
473.82237696647644	1748903833.2184699	10.0	1.0
474.22471714019775	1748903833.6208189	10.0	1.0
474.5302860736847	1748903833.931366	10.0	1.0
474.9398000240326	1748903834.340883	10.0	1.0
475.25609707832336	1748903834.6559591	10.0	1.0
475.5715882778168	1748903834.968032	10.0	1.0
475.86897110939026	1748903835.265068	10.0	1.0
476.2769021987915	1748903835.676933	10.0	1.0
476.5839021205902	1748903835.979993	10.0	1.0
476.97554206848145	1748903836.371644	10.0	1.0
477.2778272628784	1748903836.677857	10.0	1.0
477.67421221733093	1748903837.070295	10.0	1.0
477.97433495521545	1748903837.37044	10.0	1.0
478.2739191055298	1748903837.670016	10.0	1.0
478.5747420787811	1748903837.9708319	10.0	1.0
478.8804202079773	1748903838.279367	10.0	1.0
479.2911081314087	1748903838.687202	10.0	1.0
479.59488701820374	1748903838.990978	10.0	1.0
480.00450825691223	1748903839.401716	10.0	1.0
480.3171052932739	1748903839.715009	10.0	1.0
480.6256630420685	1748903840.022006	10.0	1.0
480.9180862903595	1748903840.319167	10.0	1.0
481.33429622650146	1748903840.73039	10.0	1.0
481.74071407318115	1748903841.1417978	10.0	1.0
482.05283308029175	1748903841.4489229	10.0	1.0
482.34443402290344	1748903841.743507	10.0	1.0
482.65792512893677	1748903842.057329	10.0	1.0
483.05920004844666	1748903842.460282	10.0	1.0
483.46776700019836	1748903842.866938	10.0	1.0
483.7672641277313	1748903843.164982	10.0	1.0
484.0706810951233	1748903843.466774	10.0	1.0
484.37265515327454	1748903843.769175	10.0	1.0
484.66697812080383	1748903844.0630798	10.0	1.0
485.0699920654297	1748903844.471074	10.0	1.0
485.381383895874	1748903844.7774851	10.0	1.0
485.78079628944397	1748903845.178014	10.0	1.0
486.0895481109619	1748903845.4862452	10.0	1.0
486.49059200286865	1748903845.889416	10.0	1.0
486.900386095047	1748903846.2964768	10.0	1.0
487.30723214149475	1748903846.708319	10.0	1.0
487.7193260192871	1748903847.1166599	10.0	1.0
488.1322093009949	1748903847.529253	10.0	1.0
488.443815946579	1748903847.844901	10.0	1.0
488.8641400337219	1748903848.265221	10.0	1.0
489.17954993247986	1748903848.58063	10.0	1.0
489.49048495292664	1748903848.889557	10.0	1.0
489.79541420936584	1748903849.191509	10.0	1.0
490.09208703041077	1748903849.490041	10.0	1.0
490.50545716285706	1748903849.9065468	10.0	1.0
490.8258271217346	1748903850.221923	10.0	1.0
491.23144030570984	1748903850.631316	10.0	1.0
491.54414796829224	1748903850.940324	10.0	1.0
491.8497679233551	1748903851.245856	10.0	1.0
492.1468951702118	1748903851.5450501	10.0	1.0
492.44767904281616	1748903851.848761	10.0	1.0
492.7586660385132	1748903852.1597471	10.0	1.0
493.066486120224	1748903852.4655519	10.0	1.0
493.373083114624	1748903852.773143	10.0	1.0
493.7881441116333	1748903853.1842382	10.0	1.0
494.1896901130676	1748903853.5857852	10.0	1.0
494.48928117752075	1748903853.8853672	10.0	1.0
494.88955211639404	1748903854.285646	10.0	1.0
495.2991979122162	1748903854.695762	10.0	1.0
495.60184502601624	1748903855.002013	10.0	1.0
496.0042052268982	1748903855.400307	10.0	1.0
496.300635099411	1748903855.696836	10.0	1.0
496.6036081314087	1748903856.004689	10.0	1.0
496.912504196167	1748903856.313591	10.0	1.0
497.3354539871216	1748903856.73156	10.0	1.0
497.6374132633209	1748903857.038105	10.0	1.0
498.0523991584778	1748903857.450329	10.0	1.0
498.46206307411194	1748903857.858464	10.0	1.0
498.8638970851898	1748903858.262424	10.0	1.0
499.17398500442505	1748903858.575068	10.0	1.0
499.48170804977417	1748903858.87891	10.0	1.0
499.8834629058838	1748903859.284543	10.0	1.0
500.1945230960846	1748903859.5906088	10.0	1.0
500.60454201698303	1748903860.005623	10.0	1.0
500.91596603393555	1748903860.312068	10.0	1.0
501.3208692073822	1748903860.720629	10.0	1.0
501.62555408477783	1748903861.0216398	10.0	1.0
501.91906905174255	1748903861.320159	10.0	1.0
502.2295432090759	1748903861.6306272	10.0	1.0
502.53769397735596	1748903861.936895	10.0	1.0
502.84748697280884	1748903862.248574	10.0	1.0
503.26656007766724	1748903862.667642	10.0	1.0
503.67679619789124	1748903863.077877	10.0	1.0
503.98823618888855	1748903863.384325	10.0	1.0
504.28951621055603	1748903863.6858501	10.0	1.0
504.591509103775	1748903863.991926	10.0	1.0
504.90381121635437	1748903864.304189	10.0	1.0
505.21931409835815	1748903864.615416	10.0	1.0
505.623437166214	1748903865.024519	10.0	1.0
506.05530309677124	1748903865.451461	10.0	1.0
506.3561100959778	1748903865.752217	10.0	1.0
506.6613380908966	1748903866.05758	10.0	1.0
507.0632870197296	1748903866.4643772	10.0	1.0
507.3627941608429	1748903866.759582	10.0	1.0
507.66365218162537	1748903867.064735	10.0	1.0
508.06248927116394	1748903867.458576	10.0	1.0
508.3545961380005	1748903867.7556858	10.0	1.0
508.76825499534607	1748903868.167734	10.0	1.0
509.0789370536804	1748903868.480027	10.0	1.0
509.3887469768524	1748903868.788318	10.0	1.0
509.78474617004395	1748903869.180844	10.0	1.0
510.19425892829895	1748903869.595329	10.0	1.0
510.61161494255066	1748903870.009443	10.0	1.0
510.9109990596771	1748903870.309746	10.0	1.0
511.32565212249756	1748903870.7267342	10.0	1.0
511.62573313713074	1748903871.0218298	10.0	1.0
511.93084597587585	1748903871.331655	10.0	1.0
512.242082118988	1748903871.643162	10.0	1.0
512.6560981273651	1748903872.057184	10.0	1.0
513.0715892314911	1748903872.471947	10.0	1.0
513.4871201515198	1748903872.888213	10.0	1.0
513.8038160800934	1748903873.204896	10.0	1.0
514.111485004425	1748903873.5125692	10.0	1.0
514.4194760322571	1748903873.815584	10.0	1.0
514.8264501094818	1748903874.227531	10.0	1.0
515.1443541049957	1748903874.545438	10.0	1.0
515.4424340724945	1748903874.838521	10.0	1.0
515.8501551151276	1748903875.2512362	10.0	1.0
516.2551469802856	1748903875.6547918	10.0	1.0
516.6654772758484	1748903876.0615711	10.0	1.0
517.0658071041107	1748903876.465054	10.0	1.0
517.3604431152344	1748903876.756541	10.0	1.0
517.657466173172	1748903877.0561018	10.0	1.0
517.9578931331635	1748903877.3563719	10.0	1.0
518.2576150894165	1748903877.6566741	10.0	1.0
518.5598049163818	1748903877.958032	10.0	1.0
518.961412191391	1748903878.3583841	10.0	1.0
519.2732381820679	1748903878.669346	10.0	1.0
519.6740720272064	1748903879.0751538	10.0	1.0
519.9801511764526	1748903879.3792691	10.0	1.0
520.3901901245117	1748903879.78628	10.0	1.0
520.789076089859	1748903880.190166	10.0	1.0
521.2035100460052	1748903880.599912	10.0	1.0
521.5032131671906	1748903880.899741	10.0	1.0
521.8008301258087	1748903881.2000608	10.0	1.0
522.2141351699829	1748903881.6102269	10.0	1.0
522.525885105133	1748903881.9219751	10.0	1.0
522.9251840114594	1748903882.326265	10.0	1.0
523.3467221260071	1748903882.747803	10.0	1.0
523.7660691738129	1748903883.162271	10.0	1.0
524.0727963447571	1748903883.473877	10.0	1.0
524.378799200058	1748903883.779891	10.0	1.0
524.6785161495209	1748903884.079597	10.0	1.0
525.0796830654144	1748903884.478265	10.0	1.0
525.3845751285553	1748903884.783425	10.0	1.0
525.6791779994965	1748903885.076666	10.0	1.0
525.9843862056732	1748903885.384026	10.0	1.0
526.3999910354614	1748903885.7960808	10.0	1.0
526.8047642707825	1748903886.2048619	10.0	1.0
527.1096529960632	1748903886.510735	10.0	1.0
527.420371055603	1748903886.8165781	10.0	1.0
527.827094078064	1748903887.225896	10.0	1.0
528.2304000854492	1748903887.6314812	10.0	1.0
528.6415491104126	1748903888.037647	10.0	1.0
528.9477682113647	1748903888.3468428	10.0	1.0
529.3526620864868	1748903888.748747	10.0	1.0
529.6448309421539	1748903889.0459142	10.0	1.0
529.9585630893707	1748903889.3596532	10.0	1.0
530.3664741516113	1748903889.766452	10.0	1.0
530.669634103775	1748903890.0684521	10.0	1.0
531.0739481449127	1748903890.4750369	10.0	1.0
531.4804213047028	1748903890.881501	10.0	1.0
531.7844049930573	1748903891.1854851	10.0	1.0
532.194237947464	1748903891.5953221	10.0	1.0
532.5009410381317	1748903891.8970292	10.0	1.0
532.8014709949493	1748903892.197559	10.0	1.0
533.1060371398926	1748903892.5071192	10.0	1.0
533.4162690639496	1748903892.81236	10.0	1.0
533.7232911586761	1748903893.124376	10.0	1.0
534.1317830085754	1748903893.531744	10.0	1.0
534.4423561096191	1748903893.838451	10.0	1.0
534.7480230331421	1748903894.144115	10.0	1.0
535.1516270637512	1748903894.55268	10.0	1.0
535.4642622470856	1748903894.860357	10.0	1.0
535.8739581108093	1748903895.273482	10.0	1.0
536.2860951423645	1748903895.683253	10.0	1.0
536.5941030979156	1748903895.994009	10.0	1.0
536.998547077179	1748903896.394648	10.0	1.0
537.410884141922	1748903896.8119628	10.0	1.0
537.7302153110504	1748903897.131295	10.0	1.0
538.1406531333923	1748903897.536739	10.0	1.0
538.5503101348877	1748903897.948394	10.0	1.0
538.8521010875702	1748903898.2482	10.0	1.0
539.1528930664062	1748903898.550959	10.0	1.0
539.5555419921875	1748903898.9566238	10.0	1.0
539.8631551265717	1748903899.264238	10.0	1.0
540.2666871547699	1748903899.662786	10.0	1.0
540.5734751224518	1748903899.9695702	10.0	1.0
540.9822731018066	1748903900.3783622	10.0	1.0
541.2901570796967	1748903900.6862452	10.0	1.0
541.5815732479095	1748903900.9785228	10.0	1.0
541.8799691200256	1748903901.2810571	10.0	1.0
542.2993140220642	1748903901.69947	10.0	1.0
542.7150430679321	1748903902.111129	10.0	1.0
543.0101602077484	1748903902.4112298	10.0	1.0
543.4299650192261	1748903902.8260522	10.0	1.0
543.7302792072296	1748903903.127172	10.0	1.0
544.141695022583	1748903903.541163	10.0	1.0
544.4526572227478	1748903903.84875	10.0	1.0
544.7441730499268	1748903904.141742	10.0	1.0
545.0473480224609	1748903904.4434419	10.0	1.0
545.3508942127228	1748903904.751992	10.0	1.0
545.6527760028839	1748903905.053857	10.0	1.0
545.9650931358337	1748903905.362887	10.0	1.0
546.2706482410431	1748903905.671735	10.0	1.0
546.693941116333	1748903906.095022	10.0	1.0
547.0153353214264	1748903906.411432	10.0	1.0
547.4175229072571	1748903906.8136241	10.0	1.0
547.720360994339	1748903907.1177769	10.0	1.0
548.025003194809	1748903907.424876	10.0	1.0
548.325765132904	1748903907.725711	10.0	1.0
548.7420239448547	1748903908.1381261	10.0	1.0
549.0416209697723	1748903908.442707	10.0	1.0
549.4502630233765	1748903908.847175	10.0	1.0
549.7508001327515	1748903909.1502662	10.0	1.0
550.1511859893799	1748903909.552266	10.0	1.0
550.5650551319122	1748903909.9661381	10.0	1.0
550.9717161655426	1748903910.3727958	10.0	1.0
551.2830452919006	1748903910.68413	10.0	1.0
551.6993379592896	1748903911.100422	10.0	1.0
552.0141491889954	1748903911.410248	10.0	1.0
552.4159250259399	1748903911.8120131	10.0	1.0
552.8201532363892	1748903912.221236	10.0	1.0
553.1300501823425	1748903912.5297139	10.0	1.0
553.4412972927094	1748903912.8373902	10.0	1.0
553.7452669143677	1748903913.146347	10.0	1.0
554.1508049964905	1748903913.550623	10.0	1.0
554.5617861747742	1748903913.9628649	10.0	1.0
554.9771780967712	1748903914.378262	10.0	1.0
555.2834203243256	1748903914.679529	10.0	1.0
555.5869491100311	1748903914.988029	10.0	1.0
555.9993951320648	1748903915.3954911	10.0	1.0
556.3968572616577	1748903915.797937	10.0	1.0
556.808217048645	1748903916.20431	10.0	1.0
557.2056629657745	1748903916.60322	10.0	1.0
557.5089180469513	1748903916.9099982	10.0	1.0
557.8104829788208	1748903917.211572	10.0	1.0
558.2311470508575	1748903917.632234	10.0	1.0
558.6390311717987	1748903918.03573	10.0	1.0
558.9464151859283	1748903918.3425112	10.0	1.0
559.2413051128387	1748903918.637397	10.0	1.0
559.6482119560242	1748903919.049294	10.0	1.0
560.0650281906128	1748903919.464972	10.0	1.0
560.3721280097961	1748903919.7682261	10.0	1.0
560.7716660499573	1748903920.167767	10.0	1.0
561.0776419639587	1748903920.478164	10.0	1.0
561.3936939239502	1748903920.794775	10.0	1.0
561.7006390094757	1748903921.097887	10.0	1.0
561.9984471797943	1748903921.399123	10.0	1.0
562.4141871929169	1748903921.8102772	10.0	1.0
562.7129669189453	1748903922.109737	10.0	1.0
563.0101871490479	1748903922.411267	10.0	1.0
